250.34,-2.585485
252.57,-1.598275
254.8,0
257.03,-5.4549975
259.26,-6.54185
261.48,-0.2137
263.71,-2.1106
265.94,-2.234405
268.16,0.0703000000000004
270.39,-0.65005
272.61,-1.656725
274.84,-2.19794
277.06,0.71908
279.28,-0.70173
281.51,0.0098049999999999
283.73,2.8333375
285.95,2.1777
288.17,5.222
290.39,3.46345
292.61,2.187275
294.83,-2.263595
297.05,7.4792
299.27,8.64745
301.48,6.97855
303.7,13.5
305.91,14.06825
308.13,13.37725
310.35,11.487775
312.56,11.242325
314.77,14.96795
316.99,7.8857725
319.2,10.432
321.41,8.0273
323.62,5.5709
325.83,-0.1205535
328.04,1.9745525
330.25,-6.139563
332.46,-9.22045
334.67,-7.591875
336.88,-5.461275
339.08,-8.91025
341.29,-5.840525
343.5,-11.001625
345.7,-1.3717
347.91,5.98563
350.11,10.06555
352.31,11.2748
354.52,13.2246
356.72,15.9515
358.92,17.54525
361.12,17.17875
363.32,15.7655
365.52,14.340075
367.72,16.3105
369.92,13.02095
372.12,22.324
374.32,39.141
376.51,79.7885
378.71,104.63
380.9,91.0625
383.1,59.11575
385.29,26.223
387.49,12.706225
389.68,3.96165
391.87,1.59585
394.07,-0.82218
396.26,0.6950775
398.45,3.97535
400.64,12.050825
402.83,15.7275
405.02,22.5405
407.21,39.792
409.39,60.38575
411.58,133.8625
413.77,360.54
415.95,640.4925
418.14,700
420.32,487.5975
422.51,243.715
424.69,130.0925
426.87,92.76575
429.06,92.23025
431.24,80.5295
433.42,59.70325
435.6,33.95725
437.78,16.89775
439.96,7.5499
442.14,-0.1373395
444.31,7.628875
446.49,28.04725
448.67,38.0575
450.84,33.559
453.02,16.91425
455.19,4.25915
457.37,1.362695
459.54,-3.6322
461.71,-4.25735
463.89,-2.10521
466.06,-7.24135
468.23,-2.7427275
470.4,-6.992075
472.57,-5.935475
474.74,-5.122925
476.91,-4.47775
479.07,-5.1335
481.24,1.786065
483.41,6.98834
485.57,7.531875
487.74,8.674725
489.9,9.231425
492.07,4.008285
494.23,-2.0090025
496.4,-2.719525
498.56,-5.053925
500.72,-9.220075
502.88,-9.087725
505.04,-10.27225
507.2,-4.628125
509.36,-5.8684
511.52,-7.94714815
513.68,-2.187475
515.83,-3.563825
517.99,-0.1168
520.14,-3.2875475
522.3,-2.937825
524.45,0.29675
526.61,2.028675
528.76,0.1570725
530.91,3.8059
533.07,9.346275
535.22,6.79565
537.37,9.21785
539.52,8.08845
541.67,7.2724
543.82,2.14388075
545.97,3.87604
548.11,4.4679395
550.26,-0.6360525
552.41,-4.899725
554.55,-3.546075
556.7,-2.6027875
558.84,-4.90865
560.98,2.0040045
563.13,1.84895
565.27,2.76075
567.41,-0.543525
569.55,11.793425
571.69,27.9315
573.83,75.6135
575.97,111.2025
578.11,118.9575
580.25,74.442
582.39,41.45975
584.52,18.7085
586.66,13.284025
588.79,6.47112
590.93,8.84935
593.06,3.729225
595.19,2.5488
597.33,1.056735
599.46,1.549925
601.59,0.112575
603.72,-1.20305
605.85,-0.0258000000000003
607.98,-0.05019525
610.11,5.836975
612.24,5.946005
614.36,11.196225
616.49,9.884075
618.62,7.0827575
620.74,7.632775
622.87,5.853125
624.99,-0.43196575
627.11,2.07205
629.24,0.0462575
631.36,-3.486585
633.48,0.49885
635.6,-2.813425
637.72,2.5545875
639.84,-0.587225
641.96,0.042110425
644.08,-2.1122725
646.2,-8.6343975
648.31,-6.2649575
650.43,-14.133525
652.54,-9.2286
654.66,-11.101225
656.77,-13.139375
658.89,-12.019675
661,-6.8806075
663.11,-6.8253
665.22,-1.801825
667.33,1.673305
669.44,-3.1651
671.55,3.644975
673.66,8.089175
675.77,15.33525
677.88,22.0368
679.98,32.1005
682.09,45.478
684.2,62.12225
686.3,72.17
688.4,82.5875
690.51,100.05225
692.61,108.8375
694.71,118.285
696.81,127.4675
698.92,135.8925
701.02,142.2775
703.11,155.98
705.21,162.59
707.31,170.18
709.41,170.625
711.51,172.735
713.6,159.8975
715.7,149.89
717.79,135.0425
719.89,121.975
721.98,101.1495
724.07,85.60475
726.16,78.215
728.25,63.095
730.35,60.93425
732.44,55.782
734.52,63.024
736.61,67.80525
738.7,79.8185
740.79,100.3515
742.87,130.97
744.96,170.79
747.05,214.95
749.13,246.115
751.21,253.375
753.3,216.895
755.38,169.345
757.46,121.9925
759.54,89.63675
761.62,55.839
763.7,38.2945
765.78,27.9555
767.86,16.531
769.94,14.80525
772.01,4.515325
774.09,0.136335
776.17,-0.35285
778.24,-4.873025
780.32,-0.97555
782.39,-5.871175
784.46,-5.223175
786.53,-3.196825
788.61,-0.4222975
790.68,0.753575
792.75,0.7071
794.82,-1.5710675
796.89,-1.0047
798.95,-3.5289025
801.02,-6.388075
803.09,-6.731925
805.15,-7.625125
807.22,-5.544025
809.28,-5.071425
811.35,-5.435525
813.41,-3.7312
815.47,-4.0456986
817.53,-9.23665
819.6,-8.0928
821.66,-8.76815
823.72,-11.088325
825.78,-13.72665
827.83,-10.2608
829.89,-7.981935
831.95,-3.4755325
834,-4.5095725
836.06,-5.562425
838.12,-3.776275
840.17,-1.86665
842.22,-1.152917
844.28,-1.43625
846.33,1.2089375
848.38,-0.822425
850.43,0.592325
852.48,0.5134225
854.53,2.468475
856.58,4.477625
858.63,5.4903075
860.67,5.6534
862.72,7.0597
864.77,6.01815
866.81,4.0416775
868.86,2.469925
870.9,3.644815
872.94,1.30737
874.98,-0.360385
877.03,1.022575
879.07,2.4199375
881.11,1.2729475
883.15,3.9970825
885.19,2.94847
887.22,3.298225
889.26,1.9489275
891.3,4.3387175
893.33,1.192315
895.37,0.609735
897.4,-1.303975
899.44,0
901.47,0.9568375
903.5,1.24994475
905.54,4.02789
907.57,5.6071
909.6,6.6288575
911.63,-0.79305
913.66,0.48761275
915.68,2.950385
917.71,1.582325
919.74,-1.82975
921.76,-0.9207275
923.79,-4.358325
925.82,3.502975
927.84,1.5528
929.86,4.714675
931.89,2.035375
933.91,2.33255
935.93,2.33502
937.95,3.9705
939.97,1.56135
941.99,1.29951
944.01,3.578565
946.02,0.728075
948.04,3.6971
950.06,-0.5903
952.07,0.1732675
954.09,0.8106
956.1,4.088755
958.12,3.00815
960.13,4.6119
962.14,0.859575
964.15,2.25135
966.16,1.2975525
968.17,-0.9954695
970.18,0.0946876575
972.19,-5.311675
974.2,-2.3516
976.2,-1.9994
978.21,1.848775
980.22,2.7839375
982.22,0.5211
984.22,4.114375
986.23,5.5494
988.23,-1.67039
990.23,3.6678575
992.23,2.79505
994.24,2.3586
996.23,0.838725
998.23,3.133785
1000.2,4.043275
1002.2,7.369475
1004.2,10.550775
1006.2,5.273075
1008.2,12.04835
1010.2,9.31315
1012.2,11.3992
1014.2,8.986
1016.2,10.95105
1018.2,11.2656
1020.2,9.97955
1022.2,12.6165
1024.2,14.2395
1026.1,17.24775
1028.1,20.463
1030.1,24.42425
1032.1,21.3535
1034.1,21.0965
1036.1,22.29825
1038.1,24.614
1040.1,26.342
1042,29.395
1044,31.44025
1046,36.16975
1048,37.85725
1050,43.07775
1051.9,43.383
1053.9,43.8605
1055.9,45.846
1057.9,43.395
1059.9,42.91
1061.8,42.4885
1063.8,40.743
1065.8,37.5955
1067.8,34.952
1069.7,31.80325
1071.7,31.157
1073.7,27.8275
1075.6,27.90625
1077.6,23.5375
1079.6,21.0865
1081.5,17.06275
1083.5,11.9754
1085.5,7.990875
1087.5,7.154025
1089.4,4.935825
1091.4,3.596575
1093.3,5.018075
1095.3,6.35485
1097.3,8.779
1099.2,6.0758
1101.2,3.407975
1103.2,4.968015
1105.1,1.06840675
1107.1,0.497255
1109,1.86365
1111,-1.32835
1113,-0.64387
1114.9,1.7258375
1116.9,-1.876825
1118.8,-2.2345275
1120.8,6.12905
1122.7,4.938875
1124.7,6.161525
1126.6,4.62655
1128.6,3.210175
1130.5,5.185975
1132.5,6.5753
1134.4,3.0005
1136.4,10.201075
1138.3,10.16385
1140.3,11.7663
1142.2,13.419
1144.2,13.973
1146.1,19.297
1148.1,15.52
1150,21.8935
1151.9,21.346
1153.9,24.742
1155.8,22.99925
1157.8,27.059
1159.7,26.942
1161.6,30.45425
1163.6,36.0515
1165.5,42.3025
1167.5,44.19525
1169.4,51.56475
1171.3,57.32125
1173.3,61.27275
1175.2,64.7195
1177.1,66.40225
1179.1,79.18325
1181,84.8245
1182.9,93.38375
1184.9,100.49775
1186.8,110.605
1188.7,120.4925
1190.6,131.1275
1192.6,143.645
1194.5,158.72
1196.4,167.535
1198.4,178.1475
1200.3,188.13
1202.2,197.9325
1204.1,204.695
1206,215.9775
1208,222.215
1209.9,228.9825
1211.8,238.67
1213.7,242.2925
1215.6,244.2225
1217.6,247.8775
1219.5,245.57
1221.4,240.355
1223.3,236.455
1225.2,229.62
1227.1,222.75
1229.1,216.335
1231,204.88
1232.9,194.9525
1234.8,189.2575
1236.7,181.7325
1238.6,170.17
1240.5,162.3025
1242.4,153.3425
1244.3,139.2325
1246.2,130.6675
1248.1,122.4075
1250.1,116.02
1252,105.78
1253.9,101.37
1255.8,95.28475
1257.7,90.4795
1259.6,86.33425
1261.5,82.845
1263.4,76.48875
1265.3,74.61125
1267.2,73.093
1269.1,67.37275
1271,66.3465
1272.9,58.8115
1274.8,58.1665
1276.6,57.9345
1278.5,56.401
1280.4,54.846
1282.3,52.91025
1284.2,51.45175
1286.1,44.19375
1288,44.06725
1289.9,41.79375
1291.8,40.73425
1293.7,35.962
1295.6,35.3135
1297.4,35.59675
1299.3,33.28875
1301.2,35.2665
1303.1,31.528
1305,35.4005
1306.9,33.85275
1308.7,32.858
1310.6,31.77525
1312.5,31.19375
1314.4,31.8345
1316.3,31.446
1318.1,30.46275
1320,30.93225
1321.9,32.7705
1323.8,32.4435
1325.7,34.826
1327.5,37.976
1329.4,37.46
1331.3,36.74325
1333.1,41.544
1335,42.84775
1336.9,44.52775
1338.8,48.18825
1340.6,52.65875
1342.5,55.87
1344.4,66.698
1346.2,77.56975
1348.1,88.025
1350,94.2375
1351.8,100.57975
1353.7,102.815
1355.6,100.15675
1357.4,94.62775
1359.3,92.74275
1361.1,93.60375
1363,94.31475
1364.9,95.63525
1366.7,104.0275
1368.6,114.8275
1370.4,126.85
1372.3,140.3125
1374.2,153.7175
1376,168.0175
1377.9,185.11
1379.7,195.33
1381.6,205.4825
1383.4,216.09
1385.3,217.18
1387.1,215.725
1389,220.59
1390.8,232.475
1392.7,244.13
1394.5,269.84
1396.4,296.4225
1398.2,325.91
1400.1,340.66
1401.9,335.2625
1403.8,309.0975
1405.6,269.24
1407.4,231.275
1409.3,190.91
1411.1,160.7225
1413,131.31
1414.8,109.5425
1416.6,98.366
1418.5,82.74725
1420.3,69.1825
1422.2,62.751
1424,55.68525
1425.8,45.41675
1427.7,40.855
1429.5,33.9655
1431.3,28.249
1433.2,25.4365
1435,19.386
1436.8,18.956
1438.7,17.73975
1440.5,12.351475
1442.3,7.1594
1444.1,10.290875
1446,7.4854
1447.8,7.407525
1449.6,4.295825
1451.4,1.919375
1453.3,1.308785
1455.1,1.5717375
1456.9,-0.8740675
1458.7,-1.5496
1460.6,-1.8923425
1462.4,-2.2066
1464.2,-3.599275
1466,-6.74471
1467.8,-5.879275
1469.6,-7.44255
1471.5,-6.382925
1473.3,-6.98865
1475.1,-8.817675
1476.9,-7.782875
1478.7,-5.977875
1480.5,-8.1605
1482.4,-7.1684
1484.2,-10.19485
1486,-9.17325
1487.8,-7.239475
1489.6,-11.8987
1491.4,-9.116975
1493.2,-9.414975
1495,-11.1706
1496.8,-10.65005
1498.6,-11.146575
1500.4,-8.893875
1502.2,-7.3429
1504,-11.22975
1505.8,-7.69315
1507.6,-5.6519
1509.4,-4.689475
1511.2,-7.13435
1513,-8.357375
1514.8,-6.05145
1516.6,-7.27425
1518.4,-4.31265
1520.2,-6.1977
1522,-5.94855
1523.8,-5.117525
1525.6,-6.223275
1527.4,-5.30215
1529.2,-3.63185
1531,-3.537015
1532.8,-4.0657
1534.6,-4.413
1536.4,-1.516425
1538.2,0.8440325
1539.9,2.8640125
1541.7,3.3451975
1543.5,8.8353
1545.3,8.371775
1547.1,13.2775
1548.9,17.01975
1550.7,23.81025
1552.4,28.6475
1554.2,36.92925
1556,43.7615
1557.8,38.1335
1559.6,35.11175
1561.3,36.89725
1563.1,40.42875
1564.9,42.74775
1566.7,47.59725
1568.4,54.2215
1570.2,55.7425
1572,62.86675
1573.8,70.956
1575.5,70.06275
1577.3,79.67275
1579.1,86.9935
1580.9,94.28025
1582.6,99.608
1584.4,107.5075
1586.2,114.895
1587.9,122.6475
1589.7,131.1075
1591.5,141.07
1593.2,146.355
1595,150.1825
1596.8,161.375
1598.5,168.9075
1600.3,183.8
1602,191.6475
1603.8,201.24
1605.6,215.5125
1607.3,227.2075
1609.1,233.7875
1610.8,244.7475
1612.6,252.2675
1614.4,264.16
1616.1,274.365
1617.9,282.155
1619.6,288.265
1621.4,298.1425
1623.1,310.0575
1624.9,316.6225
1626.6,324.0675
1628.4,331.185
1630.1,340.22
1631.9,344.4975
1633.6,350.7175
1635.4,353.775
1637.1,359.225
1638.9,364.155
1640.6,363.6125
1642.4,364.4925
1644.1,368.12
1645.8,371.445
1647.6,371.08
1649.3,373.78
1651.1,371.045
1652.8,371.0875
1654.6,370.49
1656.3,365.495
1658,365.18
1659.8,364.475
1661.5,362.8175
1663.2,360.785
1665,359.9925
1666.7,357.705
1668.4,357.515
1670.2,358.67
1671.9,355.545
1673.6,357.1675
1675.4,354.1
1677.1,353.61
1678.8,359.1375
1680.5,361.555
1682.3,360.51
1684,361.8025
1685.7,370.6025
1687.5,381.615
1689.2,387.0125
1690.9,395.5825
1692.6,406.69
1694.3,416.335
1696.1,429.3575
1697.8,441.78
1699.5,453.6725
1701.2,464.6875
1702.9,477.7475
1704.7,491.235
1706.4,502.4875
1708.1,508.145
1709.8,521.4075
1711.5,523.065
1713.2,529.29
1714.9,530.63
1716.7,524.995
1718.4,519.81
1720.1,516.045
1721.8,508.1325
1723.5,497.155
1725.2,485.34
1726.9,473.995
1728.6,460.345
1730.3,446.18
1732,431.0025
1733.7,409.315
1735.4,390.265
1737.1,368.1275
1738.8,339.865
1740.6,314.17
1742.3,287.79
1744,259.4
1745.7,232.165
1747.3,208.205
1749,183.7475
1750.7,159.345
1752.4,140.1025
1754.1,123.545
1755.8,108.42
1757.5,93.85725
1759.2,83.69125
1760.9,69.6315
1762.6,61.13425
1764.3,53.209
1766,44.36575
1767.7,42.519
1769.4,34.94375
1771.1,30.215
1772.7,26.49725
1774.4,24.14725
1776.1,22.6635
1777.8,16.39475
1779.5,15.359
1781.2,13.998825
1782.8,10.466925
1784.5,7.447225
1786.2,8.2563
1787.9,3.3966
1789.6,3.7302425
1791.2,3.205475
1792.9,3.423895
1794.6,0.6772475
1796.3,-0.8945925
1798,-0.815225
1799.6,-0.4215925
1801.3,-2.4173825
1803,-2.425775
1804.7,-1.602325
1806.3,-2.07222275
1808,-3.140075
1809.7,-4.14035
1811.3,-5.5835
1813,-2.20328225
1814.7,-1.79941975
1816.3,-2.7956
1818,-5.652325
1819.7,-4.324625
1821.3,-3.274425
1823,-3.691665
1824.7,-4.728975
1826.3,-1.7152175
1828,-3.46005
1829.7,-0.158024075
1831.3,-0.1947
1833,-2.57568
1834.6,-1.0203
1836.3,-1.2453125
1838,-1.016375
1839.6,-0.27835
1841.3,1.185965
1842.9,-0.7711375
1844.6,-1.1464
1846.2,-1.3389575
1847.9,-1.667128
1849.5,2.030455
1851.2,1.8975175
1852.8,2.38935
1854.5,1.03698475
1856.1,3.891425
1857.8,0.8486275
1859.4,1.3125
1861.1,0.0663325
1862.7,1.0750375
1864.4,1.82095375
1866,3.0127175
1867.7,0.456505
1869.3,2.3040825
1871,-0.492005
1872.6,4.53925
1874.2,4.469425
1875.9,1.7156
1877.5,1.0074725
1879.2,0
1880.8,2.17295
1882.4,-3.9639
1884.1,-0.4335625
1885.7,0.666815
1887.3,0.746025
1889,-3.6124
1890.6,-3.4239
1892.2,-3.04645
1893.9,-4.850575
1895.5,-8.51085
1897.1,-1.3987055
1898.8,-2.70535
1900.4,-1.763
1902,-3.543325
1903.7,-3.023175
1905.3,-4.57335
1906.9,-3.318475
1908.5,-5.237575
1910.2,-3.0439425
1911.8,-3.73515
1913.4,-2.911875
1915,-2.8882775
1916.7,-3.433235
1918.3,-5.0052
1919.9,-3.323375
1921.5,-3.4301
1923.1,-4.60175
1924.8,-5.980375
1926.4,-3.58155
1928,-3.2617
1929.6,-3.78085
1931.2,-4.066575
1932.8,-4.788325
1934.4,-6.2039
1936.1,-2.527525
1937.7,-1.6385
1939.3,-3.428875
1940.9,-3.747325
1942.5,-2.264135
1944.1,-3.247375
1945.7,-3.3499775
1947.3,-2.78677875
1948.9,-3.2295
1950.5,-3.0842176625
1952.1,0.140617277325
1953.8,-2.627
1955.4,-2.709925
1957,-5.342
1958.6,-1.7161275
1960.2,-0.28228025
1961.8,-3.2430025
1963.4,-1.2066
1965,-0.7428
1966.6,-1.7217075
1968.2,-1.8812175
1969.8,0.15167
1971.4,-0.8449
1973,0.14847
1974.5,-3.41715
1976.1,-0.45632
1977.7,-3.090825
1979.3,-1.4899875
1980.9,-2.4847
1982.5,-1.07645
1984.1,-2.1491525
1985.7,-1.19445
1987.3,1.5752715
1988.9,-0.54645
1990.5,1.3311169
1992,-0.245755
1993.6,3.093125
1995.2,0.31090175
1996.8,-0.88012
1998.4,0.5723975
2000,-0.455755
2001.6,0.870215
2003.1,1.24657625
2004.7,1.4063
2006.3,1.002825
2007.9,0.187245
2009.5,3.0435
2011,3.970875
2012.6,2.07302575
2014.2,2.365525
2015.8,2.3648
2017.3,-1.9592825
2018.9,-0.9927875
2020.5,5.277425
2022.1,5.914725
2023.6,2.9548775
2025.2,2.6158425
2026.8,2.785
2028.3,2.188415
2029.9,3.3812
2031.5,1.345675
2033,3.748425
2034.6,1.6539
2036.2,0.7872025
2037.7,5.170325
2039.3,6.4147
2040.9,5.0077
2042.4,1.655875
2044,2.726845
2045.6,1.6340425
2047.1,5.039175
2048.7,2.8871225
2050.2,0.7472
2051.8,4.4133
2053.4,2.6825225
2054.9,4.0734
2056.5,2.999825
2058,1.04781
2059.6,1.244725
2061.1,2.86605
2062.7,0.2200525
2064.2,1.364875
2065.8,2.060115
2067.3,-0.05155
2068.9,0.776734
2070.4,0.0150625
2072,-0.5677575
2073.5,-2.0297525
2075.1,-0.147045
2076.6,1.5123
2078.2,-1.23925
2079.7,1.880375
2081.3,2.494875
2082.8,3.4932625
2084.4,2.2101
2085.9,0.775225
2087.4,3.9155675
2089,0.84876
2090.5,2.47736
2092.1,3.48985
2093.6,0.7325925
2095.1,4.050115
2096.7,4.485285
2098.2,4.2654
2099.7,1.90482225
2101.3,5.0393175
2102.8,3.4419875
2104.3,2.080875
2105.9,4.814075
2107.4,3.978775
2108.9,4.048925
2110.5,2.8294765
2112,5.3638925
2113.5,4.7561
2115.1,7.36635
2116.6,3.1703
2118.1,4.957925
2119.6,5.0440675
2121.2,3.75379
2122.7,2.94705
2124.2,3.4587
2125.7,3.4803175
2127.3,4.857
2128.8,4.554725
2130.3,7.241275
2131.8,8.1539
2133.3,11.1281
2134.9,18.3045
2136.4,23.22775
2137.9,24.81825
2139.4,21.584
2140.9,15.6055
2142.4,7.4958
2144,7.838075
2145.5,2.6241675
2147,6.8808
2148.5,5.663175
2150,2.4855
2151.5,2.527825
2153,2.5377825
2154.5,3.3128
2156,2.386725
2157.6,2.32472
2159.1,1.3921175
2160.6,0.145532
2162.1,1.41315
2163.6,1.961035
2165.1,-1.6423825
2166.6,2.432825
2168.1,-2.0010625
2169.6,-5.406675
2171.1,1.597085
2172.6,1.4036325
2174.1,1.956035
2175.6,0.46658
2177.1,0.44075
2178.6,-0.686475
2180.1,-1.6098
2181.6,-1.051705
2183.1,-6.43425
2184.6,-0.41109
2186.1,-1.39005
2187.5,0.426305
2189,-1.4462675
2190.5,-0.01142
2192,-0.6509175
2193.5,-1.32028
2195,-0.657755
2196.5,-1.668625
2198,-0.682465
2199.5,-2.72334825
2201,-1.5924375
2202.4,-0.647585
2203.9,-1.8462275
2205.4,-2.717375
2206.9,-2.662825
2208.4,-2.19880425
2209.9,-0.7251975
2211.3,-1.3910113
2212.8,-0.408353
2214.3,0.04209325
2215.8,0.631725
2217.3,-2.188575
2218.7,-1.0372325
2220.2,-2.4649475
2221.7,-1.18509
2223.2,-2.78127
2224.6,-0.84816
2226.1,-0.7586525
2227.6,-0.65853
2229.1,-1.5782725
2230.5,-3.730175
2232,-2.2509475
2233.5,-1.192425
2234.9,-1.553945
2236.4,-1.14765
2237.9,-1.576175
2239.3,-1.326045
2240.8,-0.83075
2242.3,-0.804565
2243.7,0.099775
2245.2,0.34645
2246.7,0.028
2248.1,-0.285775
2249.6,-2.28079
2251.1,1.5950525
2252.5,-0.5322125
2254,-0.860455
2255.4,1.47253
2256.9,-0.077653
2258.3,1.016125
2259.8,0.767765
2261.3,-1.009455
2262.7,0.5290725
2264.2,0.76822325
2265.6,1.2977525
2267.1,0.42992525
2268.5,0.40763
2270,2.386065
2271.4,0.113555
2272.9,2.81925
2274.3,0
2275.8,2.548
2277.2,1.98635
2278.7,0.859105
2280.1,1.7269
2281.6,-1.0662575
2283,-1.2594
2284.5,-0.1487
2285.9,0.689315
2287.4,1.94795
2288.8,-0.0992099999999999
2290.2,0.86727
2291.7,1.58198675
2293.1,1.20114925
2294.6,-4.47255
2296,3.990575
2297.4,1.631635
2298.9,2.48111
2300.3,1.5054
2301.7,2.4460325
2303.2,-0.7417575
2304.6,-0.5098325
2306,1.3628625
2307.5,2.0678975
2308.9,2.12924175
2310.3,1.0771
2311.8,0.09616
2313.2,2.66938625
2314.6,0.37957
2316.1,-1.070775
2317.5,2.265425
2318.9,3.122525
2320.3,2.5580125
2321.8,5.171275
2323.2,4.608425
2324.6,11.68975
2326,15.8505
2327.5,23.2595
2328.9,30.69175
2330.3,27.69625
2331.7,22.906
2333.2,13.39
2334.6,9.030075
2336,5.3217
2337.4,5.291975
2338.8,1.1007625
2340.2,3.7891525
2341.7,3.38115
2343.1,1.786845
2344.5,4.4988
2345.9,2.82573
2347.3,-1.4663475
2348.7,3.296225
2350.1,-0.0111
2351.6,0.9484175
2353,2.4093325
2354.4,0.392005
2355.8,1.2641175
2357.2,0.10093
2358.6,-4.084225
2360,3.92295
2361.4,5.148475
2362.8,3.781875
2364.2,1.739375
2365.6,-2.2507875
2367,1.6768275
2368.4,3.690725
2369.8,2.7313325
2371.2,2.890075
2372.6,1.747525
2374,4.235275
2375.4,1.09683475
2376.8,3.754525
2378.2,2.480435
2379.6,3.697925
2381,3.7318515
2382.4,5.1111
2383.8,2.48445
2385.2,2.812725
2386.6,3.518775
2388,1.6078875
2389.4,0.7583875
2390.8,2.2182
2392.1,3.33855
2393.5,1.973995
2394.9,2.8457
2396.3,0.77505075
2397.7,1.685775
2399.1,1.779725
2400.5,1.67025
2401.9,1.309025
2403.2,1.7694225
2404.6,0.447105
2406,1.450745
2407.4,-0.204275
2408.8,1.29757
2410.2,0.65415
2411.5,2.559505
2412.9,-1.9349025
2414.3,0.773875
2415.7,0
2417,1.06936
2418.4,2.709325
2419.8,0.269645
2421.2,1.9255
2422.5,0.1421075
2423.9,0.2647896
2425.3,2.1427
2426.7,-0.139676
2428,-0.61845
2429.4,-0.099505
2430.8,-0.156145
2432.1,2.56045
2433.5,0.8497575
2434.9,2.49175
2436.2,-0.7782145
2437.6,0.4625125
2439,2.027475
2440.3,2.7056575
2441.7,-1.086882
2443.1,-0.10621
2444.4,1.409615
2445.8,-0.11190025
2447.2,-1.126655
2448.5,0.19095
2449.9,-0.2167525
2451.2,-1.60066
2452.6,0.9661275
2454,1.771025
2455.3,0.92175
2456.7,-0.00446749999999996
2458,0.0472525
2459.4,-0.1215675
2460.7,-1.323156
2462.1,1.096255
2463.4,0.5242
2464.8,1.5938625
2466.1,-0.25254
2467.5,1.5198125
2468.8,2.4640275
2470.2,-0.0629575
2471.5,1.0367825
2472.9,1.8176125
2474.2,-1.414175
2475.6,1.05937
2476.9,2.34866
2478.3,1.0152675
2479.6,0.5516
2481,0.046405
2482.3,0.4436525
2483.6,-0.397075
2485,-0.7302325
2486.3,0.230855
2487.7,-1.228742
2489,-0.026995
2490.3,1.5237975
2491.7,-0.27675
2493,0.0673275
2494.4,1.5782075
2495.7,1.0799625
2497,-1.026865
2498.4,1.0930725
2499.7,-0.37386
2501,2.807375
2502.4,0.5908775
2503.7,0.25798
2505,-1.1134375
2506.4,-0.0909575
2507.7,0.943025
2509,0.73087
2510.3,0.237587025
2511.7,0.7874025
2513,0.9511225
2514.3,0.27054
2515.6,2.90595
2517,1.15743325
2518.3,1.61592
2519.6,-0.35102925
2520.9,0
2522.3,1.7197125
2523.6,0.9302575
2524.9,0.81685
2526.2,0.5234775
2527.5,0.7102
2528.9,0.0947249999999999
2530.2,-0.608275
2531.5,2.2453775
2532.8,2.280435
2534.1,2.6584775
2535.4,1.77045
2536.8,2.263
2538.1,4.6883
2539.4,2.5581725
2540.7,2.413325
2542,2.2867175
2543.3,3.379
2544.6,2.7813475
2545.9,0.344285
2547.2,2.146225
2548.6,2.7678225
2549.9,4.19505
2551.2,3.79545
2552.5,3.143625
2553.8,4.958875
2555.1,2.2140025
2556.4,3.848125
2557.7,2.880705
2559,3.206
2560.3,3.38418
2561.6,3.77054
2562.9,4.15585
2564.2,4.28955
2565.5,3.429475
2566.8,7.0001
2568.1,6.325145
2569.4,5.3674
2570.7,6.478525
2572,4.45705
2573.3,4.6004
2574.6,6.223025
2575.9,4.573975
2577.1,5.883375
2578.4,5.13375
2579.7,4.001725
2581,5.467925
2582.3,4.926675
2583.6,5.457675
2584.9,4.444775
2586.2,5.84335
2587.5,4.5934
2588.7,4.2833
2590,4.044325
2591.3,4.35605
2592.6,4.61811
2593.9,3.31585
2595.2,2.89274925
2596.4,5.180605
2597.7,3.75696725
2599,1.0360375
2600.3,2.9455225
2601.6,4.84188
2602.8,2.077515
2604.1,2.393125
2605.4,4.4609
2606.7,2.24445
2608,3.259755
2609.2,2.084375
2610.5,4.0681
2611.8,2.5682925
2613,1.57275125
2614.3,0.93446
2615.6,2.71008
2616.9,1.62046
2618.1,2.96017
2619.4,1.1077805
2620.7,0.400615
2621.9,2.9579
2623.2,-0.132475
2624.5,0.3829475
2625.7,-3.0260525
2627,0.0997775
2628.3,0.00787000000000004
2629.5,0
2630.8,0.5550225
2632.1,-0.719525
2633.3,1.1835
2634.6,-1.105675
2635.8,-0.28692
2637.1,-2.66585
2638.4,-1.565245
2639.6,-2.7361675
2640.9,-3.563025
2642.1,-2.9569575
2643.4,-2.636105
2644.6,-1.224245
2645.9,-1.592025
2647.2,-5.26615
2648.4,-1.5676
2649.7,-3.9792
2650.9,-3.814025
2652.2,-3.602025
2653.4,-2.538165
2654.7,-3.547975
2655.9,-5.069125
2657.2,-4.665625
2658.4,-5.00225
2659.7,-3.152475
2660.9,-3.81345
2662.2,-3.565575
2663.4,-4.6354
2664.6,-3.9602475
2665.9,-5.4908
2667.1,-2.4219425
2668.4,-4.707325
2669.6,-5.333625
2670.9,-4.534825
2672.1,-3.314075
2673.3,-4.2898
2674.6,-4.119975
2675.8,-3.724975
2677.1,-5.21295
2678.3,-4.48145
2679.5,-4.029475
2680.8,-3.82215
2682,-5.5298
2683.2,-4.669405
2684.5,-4.058925
2685.7,-3.49275
2686.9,-2.24848125
2688.2,-1.7721675
2689.4,-3.693575
2690.6,-3.126514
2691.9,-5.36995
2693.1,-2.7584
2694.3,-4.006075
2695.5,-4.14105
2696.8,-3.8877775
2698,-4.853475
2699.2,-3.90665
2700.4,-4.323075
2701.7,-4.447275
2702.9,-2.067475
2704.1,-3.6376625
2705.3,-4.765225
2706.6,-4.2386
2707.8,-3.310705
2709,-3.09395
2710.2,-2.61956
2711.4,-5.397625
2712.6,-3.246325
2713.9,-3.366875
2715.1,-1.60085
2716.3,-4.159075
2717.5,-0.924465
2718.7,-2.542705
2719.9,-1.5678425
2721.2,-1.3873125
2722.4,-3.0403
2723.6,-1.0934125
2724.8,-2.888475
2726,0
2727.2,-0.098301078925
2728.4,-0.4985725
2729.6,-0.7947675
2730.8,-2.2265
2732,-0.415455
2733.3,-3.462
2734.5,-1.663155
2735.7,-0.3267825
2736.9,-0.212189
2738.1,1.243365
2739.3,-1.798065
2740.5,-2.4327
2741.7,-2.145005
2742.9,-1.91942
2744.1,-1.2991
2745.3,-1.050485
2746.5,-0.1215455
2747.7,-1.4713675
2748.9,-0.6506925
2750.1,-0.7137875
2751.3,0.2450025
2752.5,0.00797499999999995
2753.7,-1.66184325
2754.9,0.89999
2756,-1.14523
2757.2,1.7996575
2758.4,1.000275
2759.6,2.179685
2760.8,0.975975
2762,1.02915
2763.2,0.951445
2764.4,0.824775
2765.6,0.2997
2766.8,1.14565
2767.9,3.38235
2769.1,2.7517225
2770.3,2.47257
2771.5,4.229
2772.7,4.535775
2773.9,5.453725
2775.1,3.322975
2776.2,5.60625
2777.4,3.038175
2778.6,4.01075
2779.8,2.147258025
2781,4.937425
2782.1,3.504925
2783.3,3.810535
2784.5,4.1597
2785.7,4.1723
2786.8,3.287845
2788,4.403225
2789.2,4.112875
2790.4,2.7346
2791.5,2.1791125
2792.7,0.874195
2793.9,2.2628275
2795.1,0.2996125
2796.2,0.4953825
2797.4,-0.7097
2798.6,1.2311925
2799.7,1.250435
2800.9,0.7139475
2802.1,1.9526175
2803.2,-1.40645
2804.4,-1.4207975
2805.6,0.9967075
2806.7,-1.2510875
2807.9,-1.252277
2809.1,0.0247724999999999
2810.2,1.0014
2811.4,1.03501
2812.6,-0.8461475
2813.7,-1.7663025
2814.9,0.14444925
2816,-0.9370725
2817.2,0.4437275
2818.4,0
2819.5,2.13002
2820.7,0.5866
2821.8,-0.611725
2823,0.793075
2824.1,-0.859125
2825.3,-0.0241074999999999
2826.4,-0.564375
2827.6,1.2554275
2828.7,-0.300735
2829.9,-0.316825
2831,-2.060855
2832.2,-0.96114
2833.3,-0.13103475
2834.5,-1.178355
2835.6,-1.3996025
2836.8,-0.5851125
2837.9,-2.2735575
2839.1,-0.421725
2840.2,-2.78495
2841.4,-1.980525
2842.5,-0.645825
2843.7,-3.6439
2844.8,-4.0775
2845.9,-2.559155
2847.1,-2.688525
2848.2,-2.49247
2849.4,-3.9833225
2850.5,-2.827425
2851.7,-3.6378
2852.8,-3.46815
2853.9,-3.427475
2855.1,-2.156825
2856.2,-3.04786
2857.3,-4.324475
2858.5,-3.24761
2859.6,-3.173425
2860.7,-4.046975
2861.9,-3.692
2863,-4.219
2864.1,-3.124975
2865.3,-2.455475
2866.4,-7.38255
2867.5,-3.68065
2868.7,-2.875725
2869.8,-1.183545
2870.9,-2.7972925
2872,-1.96896
2873.2,-2.040275
2874.3,-3.10915
2875.4,-1.29245
2876.5,-0.88122
2877.7,-3.999775
2878.8,-1.09283
2879.9,-0.012005
2881,0.01188
2882.2,0.940378075
2883.3,0.87606
2884.4,0.6587425
2885.5,3.7766
2886.6,3.3319
2887.8,-0.35173
2888.9,3.711875
2890,5.849475
2891.1,7.617725
2892.2,7.39335
2893.3,10.108925
2894.4,10.2314
2895.6,9.338675
2896.7,11.657675
2897.8,11.8162
2898.9,13.9575
2900,14.93975
2901.1,17.3005
2902.2,17.0705
2903.3,19.88375
2904.4,21.72
2905.6,23.2835
2906.7,25.3215
2907.8,27.5465
2908.9,30.79775
2910,30.8605
2911.1,33.94975
2912.2,38.299
2913.3,37.8055
2914.4,41.805
2915.5,40.91925
2916.6,45.213
2917.7,47.3995
2918.8,48.01275
2919.9,52.3845
2921,54.693
2922.1,55.96175
2923.2,58.867
2924.3,60.25975
2925.4,63.23075
2926.5,68.352
2927.6,68.734
2928.7,71.06
2929.8,71.32875
2930.8,75.13225
2931.9,75.73225
2933,79.7125
2934.1,82.1145
2935.2,82.30275
2936.3,82.9345
2937.4,83.2715
2938.5,85.8535
2939.6,84.6835
2940.6,87.24175
2941.7,91.21375
2942.8,90.20025
2943.9,89.6905
2945,90.74225
2946.1,89.2285
2947.2,91.963
2948.2,93.00025
2949.3,88.92475
2950.4,88.65875
2951.5,86.49675
2952.6,82.554
2953.6,82.841
2954.7,78.05975
2955.8,75.619
2956.9,73.6865
2957.9,68.78425
2959,67.734
2960.1,61.45375
2961.2,58.04
2962.2,59.32575
2963.3,54.29575
2964.4,50.32775
2965.5,46.48625
2966.5,45.37125
2967.6,42.49225
2968.7,36.35125
2969.7,34.52025
2970.8,35.845
2971.9,35.04175
2973,29.50375
2974,28.44175
2975.1,27.5025
2976.2,25.44125
2977.2,22.96275
2978.3,22.18125
2979.3,22.3805
2980.4,20.27525
2981.5,21.0255
2982.5,21.30725
2983.6,20.528
2984.7,19.7815
2985.7,17.12525
2986.8,16.42675
2987.8,15.87875
2988.9,17.01
2989.9,18.35775
2991,17.19425
2992.1,16.33475
2993.1,17.3615
2994.2,17.64025
2995.2,19.30775
2996.3,18.112
2997.3,18.12375
2998.4,17.58325
2999.4,18.406
3000.5,19.29975
3001.5,19.53725
3002.6,18.9435
3003.6,18.31025
3004.7,18.47025
3005.7,20.917
3006.8,19.987
3007.8,20.69825
3008.9,23.60675
3009.9,23.4075
3011,25.33875
3012,24.6575
3013,23.42675
3014.1,24.94275
3015.1,27.48375
3016.2,28.29325
3017.2,27.80725
3018.2,30.20275
3019.3,29.85025
3020.3,29.679
3021.4,32.2125
3022.4,32.24575
3023.4,33.54125
3024.5,33.82275
3025.5,34.39
3026.5,35.4225
3027.6,35.095
3028.6,36.84375
3029.6,37.24025
3030.7,37.67225
3031.7,39.361
3032.7,41.7595
3033.8,43.91525
3034.8,43.79075
3035.8,46.99775
3036.9,44.5865
3037.9,46.9205
3038.9,45.93325
3039.9,46.6485
3041,49.85475
3042,50.9635
3043,51.162
3044,51.87825
3045.1,55.0745
3046.1,52.6635
3047.1,57.313
3048.1,57.905
3049.2,58.3815
3050.2,60.40775
3051.2,60.31475
3052.2,62.7645
3053.2,61.527
3054.3,63.62075
3055.3,65.9825
3056.3,67.478
3057.3,67.71875
3058.3,68.737
3059.3,71.92625
3060.3,71.46675
3061.4,75.8575
3062.4,74.13525
3063.4,74.70075
3064.4,75.1235
3065.4,81.6245
3066.4,81.494
3067.4,82.58825
3068.4,82.89075
3069.5,85.26125
3070.5,85.59925
3071.5,87.851
3072.5,90.47075
3073.5,89.919
3074.5,90.5835
3075.5,93.535
3076.5,95.22875
3077.5,94.6215
3078.5,99.547
3079.5,101.7875
3080.5,102.67625
3081.5,104.42
3082.5,104.3925
3083.5,105.7975
3084.5,107.8075
3085.5,106.555
3086.5,111.85
3087.5,113.6125
3088.5,112.8775
3089.5,114.685
3090.5,116.32
3091.5,120.065
3092.5,121.6675
3093.5,122.355
3094.5,123.5075
3095.5,125.4375
3096.4,127.4325
3097.4,129.27
3098.4,131.7625
3099.4,131.2825
3100.4,133.9125
3101.4,135.0175
3102.4,139.2
3103.4,139.43
3104.4,135.5075
3105.3,145.9375
3106.3,146.5375
3107.3,149.1725
3108.3,149.46
3109.3,149.6375
3110.3,153.235
3111.3,155.2675
3112.2,157.6225
3113.2,160.5975
3114.2,163.05
3115.2,166.2225
3116.2,169.4475
3117.1,167.2625
3118.1,167.9175
3119.1,170.2525
3120.1,172.3225
3121,174.7725
3122,177.155
3123,179.4025
3124,182.2
3124.9,182.745
3125.9,183.48
3126.9,188.8175
3127.9,191.36
3128.8,190.66
3129.8,191.425
3130.8,195.19
3131.7,195.035
3132.7,198.01
3133.7,203.0175
3134.7,200.015
3135.6,204.435
3136.6,205.41
3137.6,205.625
3138.5,207.9
3139.5,208.4275
3140.4,209.985
3141.4,216.0575
3142.4,211.3475
3143.3,216.5625
3144.3,218.9075
3145.3,218.6175
3146.2,220.7875
3147.2,225.375
3148.1,223.655
3149.1,227.0075
3150.1,226.3625
3151,226.87
3152,230.0375
3152.9,233.875
3153.9,234.7325
3154.8,235.9475
3155.8,234.29
3156.7,236.0575
3157.7,237.4425
3158.6,240.0075
3159.6,233.89
3160.6,239.95
3161.5,241.9625
3162.5,245.085
3163.4,243.1625
3164.4,245.005
3165.3,242.685
3166.2,246.0625
3167.2,246.735
3168.1,248.7475
3169.1,246.425
3170,251.2975
3171,250.45
3171.9,250.5725
3172.9,253.3575
3173.8,253.4025
3174.7,254.07
3175.7,254.52
3176.6,256.5925
3177.6,253.8125
3178.5,253.7925
3179.5,257.6825
3180.4,256.2825
3181.3,256.3375
3182.3,256.1575
3183.2,259.09
3184.1,259.5225
3185.1,260.8875
3186,256.55
3186.9,260.2425
3187.9,257.18
3188.8,258.5025
3189.7,258.6225
3190.7,259.2475
3191.6,260.2075
3192.5,259.5975
3193.5,258.385
3194.4,260.83
3195.3,258.8025
3196.3,259.845
3197.2,257.92
3198.1,257.1125
3199,255.1275
3200,254.8875
3200.9,250.7875
3201.8,254.8525
3202.7,254.78
3203.7,252.96
3204.6,252.315
3205.5,256.1275
3206.4,248.4225
3207.3,248.74
3208.3,245.52
3209.2,243.42
3210.1,243.8775
3211,243.16
3211.9,241.6575
3212.9,241.1225
3213.8,237.4325
3214.7,233.0625
3215.6,236.3325
3216.5,233.5375
3217.4,232.85
3218.4,230.1625
3219.3,228.645
3220.2,225.195
3221.1,225.19
3222,221.5525
3222.9,217.5175
3223.8,213.97
3224.7,210.4975
3225.6,210.8425
3226.6,208.81
3227.5,208.02
3228.4,201.6425
3229.3,199.4425
3230.2,197.72
3231.1,195.0575
3232,189.975
3232.9,187.1975
3233.8,186.015
3234.7,184.9075
3235.6,180.385
3236.5,175.5225
3237.4,170.935
3238.3,168.9425
3239.2,163.115
3240.1,161.3575
3241,154.515
3241.9,151.195
3242.8,149.3025
3243.7,139.1225
3244.6,136.3975
3245.5,130.24
3246.4,122.2825
3247.3,115.5275
3248.2,104.66
3249.1,98.3965
3250,88.42225
3250.9,78.8475
3251.8,68.6975
3252.7,54.89375
3253.5,42.81
3254.4,26.399
3255.3,11.6414
3256.2,-8.053525
